
BANK       1    2727     272  CONST  3000.97    3.30     0.0     0.0         STD
     157     154     144     166     139     139     153     154     173     152
     135     148     149     146     145     147     139     127     146     140
     132     136     142     145     147     134     119     137     161     154
     146     141     139     133     133     149     142     130     144     153
     143     142     154     161     154     144     146     134     128     143
     145     136     135     139     142     123     138     146     139     133
     120     133     149     151     150     143     171     135     120     141
     149     126     131     140     123     130     129     136     160     145
     132     139     133     129     131     103     116     114     142     150
     123     118     128     128     135     125     130     134     141     139
     138     127     126     127     124     132     127     112     114     125
     135     120     129     135     117     113     117     115     121     125
     123     132     132     125     132     121     113     123     125     123
     119     116     118     134     137     137     134     136     141     133
     135     138     150     142     128     166     152     143     146     193
     185     184     211     203     209     260     288     288     322     325
     288     323     360     370     370     309     309     268     264     250
     232     200     173     174     157     173     148     160     155     153
     147     147     144     140     138     159     153     133     144     151
     143     144     136     131     138     140     122     129     139     135
     133     123     130     136     140     129     127     140     133     143
     138     147     150     152     143     146     119     127     134     128
     116     144     145     141     134     135     151     161     157     129
     130     155     163     152     169     149     165     179     161     195
     237     231     250     248     276     293     274     332     368     387
     449     496     523     596     646     688     761     783     751     794
     750     713     704     679     645     628     572     552     550     537
     538     547     563     568     551     568     611     608     592     606
     600     564     540     503     479     504     476     427     425     401
     380     377     382     375     361     365     388     393     397     413
     461     462     503     574     669     727     820     950    1017    1212
    1306    1420    1534    1702    1648    1702    1639    1530    1397    1221
    1104     950     812     696     569     515     456     419     356     326
     302     277     257     250     241     208     212     195     183     172
     158     148     132     132     137     132     124     128     126     117
     131     126     117     102     100     115     114     115     114     106
     106     101      88      83      94     102     105     102      83      99
      88      88      83      89      95      89      81      92      86      89
      79      92      86      74      74      85      70      86      90      85
      87      86      85      73      69      75      83      65      80      66
      81      78      69      97      76      75      72      81      86      74
      77      80      74      70      70      72      79      70      71      77
      78      81      82      71      59      56      63      77      70      62
      68      81      74      63      67      75      78      72      65      70
      76      64      59      65      73      69      75      67      71      59
      56      59      67      75      57      55      63      80      66      59
      65      61      66      59      58      72      59      71      69      68
      64      62      65      75      51      60      61      69      69      60
      68      73      69      62      68      74      63      67      65      61
      71      76      61      68      68      58      62      61      65      77
      55      54      67      65      53      50      59      65      58      52
      54      58      59      57      50      53      65      68      62      57
      51      54      71      73      66      62      63      61      57      60
      59      64      63      62      52      58      54      69      57      70
      65      59      57      61      66      58      65      69      60      65
      56      52      64      85      65      54      57      67      66      53
      57      55      44      45      49      71      61      67      55      53
      56      52      61      56      50      57      55      57      50      48
      52      52      57      63      68      63      56      57      66      68
      66      60      53      57      59      56      58      54      51      50
      50      58      53      55      60      52      57      58      59      65
      61      52      60      64      56      56      68      60      61      47
      66      63      67      64      64      58      71      71      61      70
      58      53      68      60      65      56      62      41      49      57
      49      56      72      75      71      57      58      60      54      55
      52      52      51      66      75      62      64      57      52      53
      58      52      60      58      67      64      61      63      59      55
      61      73      72      70      74      78      80      80      84      88
      89      87      92      82      96     105     114     119     126     163
     184     191     220     247     269     299     346     397     421     451
     455     480     528     483     483     458     421     391     353     278
     258     257     193     178     144     133     119     124      98     105
     110      87      87      95      82      88      87      82      81      85
      74      78      78      64      63      71      68      66      61      74
      75      68      75      86      72      58      67      73      73      70
      72      70      68      71      63      56      59      67      70      73
      72      73      77      68      74      78      72      73      80      74
      79      84      86      72      82      96     106     120     120     140
     147     139     143     145     155     155     164     200     189     228
     250     260     305     288     281     304     310     298     277     327
     310     311     316     294     287     284     282     292     266     269
     267     221     214     203     178     167     155     138     136     128
     114     111      93      95      91      90      92      86      81      77
      64      60      63      61      69      69      61      64      65      56
      63      51      45      52      62      56      61      59      50      44
      57      74      55      53      56      61      50      56      54      45
      50      61      50      52      39      53      61      52      45      56
      44      53      56      49      56      53      46      44      59      57
      39      48      43      50      41      53      57      48      50      54
      54      47      57      56      46      44      59      56      51      50
      53      52      53      45      44      50      53      50      44      43
      44      51      55      54      52      52      59      55      54      53
      54      57      54      52      48      41      51      46      48      55
      54      52      51      53      52      43      47      48      39      55
      54      46      48      50      61      55      41      68      51      43
      60      39      33      37      50      38      55      52      47      56
      48      58      62      54      50      53      52      47      53      54
      60      59      61      54      56      61      57      52      64      63
      53      50      64      67      69      72      71      73      78      91
      91      89     112     119     121     144     159     178     188     203
     236     279     310     352     383     391     396     452     473     477
     444     443     478     461     433     370     373     303     320     242
     231     190     169     146     138     104     106      95      67      61
      78      61      60      64      70      53      54      75      62      75
      63      53      53      67      53      44      55      56      54      44
      58      50      49      51      50      50      47      49      44      37
      44      49      49      53      58      50      44      43      44      53
      52      50      52      50      49      47      48      50      53      52
      54      58      41      40      39      48      55      54      44      52
      45      52      56      47      36      37      57      43      56      44
      43      45      51      44      51      55      41      60      32      49
      66      42      48      48      58      39      42      40      41      56
      48      53      55      54      49      50      46      48      60      58
      45      40      50      51      53      54      53      47      52      58
      57      54      46      51      58      57      50      47      46      44
      45      43      50      58      56      51      53      59      58      42
      44      47      56      54      52      61      46      47      53      51
      50      46      43      56      54      60      53      65      48      62
      64      59      56      59      55      58      69      50      54      67
      77      68      42      53      68      62      93      81      83      65
      75      65      80      89      90      89      83      76      96     104
     105     112     119     134     143     144     152     143     163     192
     217     231     242     270     274     298     343     380     411     412
     450     502     507     527     530     515     537     559     535     501
     487     432     409     396     351     316     290     281     255     216
     217     193     166     154     173     152     143     123     120     127
     103     100     113      96      83      85      90      83      86      81
      81      74      83      80      75      71      56      59      57      69
      64      68      60      53      66      58      54      58      59      60
      57      55      51      51      51      55      53      56      51      50
      56      57      52      51      48      46      43      43      54      59
      55      47      40      42      53      61      57      55      55      50
      39      50      57      61      46      51      49      55      46      61
      43      59      59      49      58      64      73      54      44      51
      57      65      45      55      72      50      91      59      67      60
      51      65      65      64      65      64      61      74      54      45
      55      65      56      59      71      70      66      54      53      61
      58      65      73      64      67      60      58      62      59      75
      78      71      83      85      89      92      88      95      98     101
     109     124     132     134     148     138     147     166     168     181
     180     185     206     212     215     218     233     225     215     231
     217     212     212     181     190     182     200     166     137     116
     139     131     111     107      95      93      81      90      85     102
      86      97      85     101     107      93      83      89      88      96
     100      96     100      95     104     105      95     101     109     106
      89      84      95      82      77      87      81      70      66      78
      73      64      70      64      48      53      57      48      56      55
      51      51      47      49      40      42      47      48      42      41
      34      46      43      47      40      41      45      55      41      51
      50      42      34      36      40      46      49      41      40      32
      35      39      36      59      41      44      34      35      29      36
      34      33      54      40      41      45      49      48      44      44
      47      49      50      40      38      40      42      49      59      53
      54      48      40      36      36      44      64      64      49      43
      46      46      45      40      37      42      38      36      43      40
      42      46      41      37      36      42      38      32      40      47
      45      37      37      44      46      37      49      37      36      43
      53      61      52      51      50      43      50      49      50      46
      46      53      72      60      76      66      47      56      44      48
      49      54      45      70      60      53      53      57      46      43
      54      50      58      58      42      43      45      39      46      47
      44      45      47      47      42      38      42      41      41      43
      38      38      40      40      46      47      46      46      48      48
      41      48      57      50      41      52      52      47      46      44
      40      41      46      49      41      37      34      40      53      37
      44      44      35      43      42      40      48      43      45      50
      38      30      34      33      35      50      34      48      44      36
      41      39      37      40      44      41      38      31      33      38
      31      38      48      50      41      37      30      38      39      30
      36      44      45      45      40      36      33      37      43      41
      38      39      49      47      40      39      35      39      42      42
      44      44      45      39      47      41      38      48      47      50
      45      50      42      45      52      42      46      56      56      65
      53      63      56      54      60      45      69      48      42      57
      58      46      46      45      39      35      39      50      43      28
      28      37      41      35      29      35      31      32      35      23
      29      30      27      32      34      34      37      34      32      33
      29      28      29      28      28      31      33      32      34      36
      36      31      26      28      32      36      36      33      34      38
      36      32      34      38      40      40      34      31      35      32
      38      40      26      26      32      29      33      34      33      25
      28      27      29      26      34      39      30      35      48      37
      32      35      35      38      34      28      37      34      37      31
      35      24      34      31      41      35      30      31      27      27
      32      33      42      32      33      38      32      32      42      39
      31      31      35      35      38      37      36      31      31      31
      31      39      37      34      26      32      41      31      27      32
      43      42      42      41      40      41      53      45      43      41
      46      47      48      37      48      47      51      51      43      43
      41      44      56      46      55      56      54      50      70      59
      58      57      66      74      48      57      72      59      52      50
      38      50      51      37      41      40      53      55      55      43
      43      38      42      47      49      47      48      44      50      51
      45      34      37      41      41      45      48      46      43      48
      52      50      48      48      48      44      44      43      45      46
      39      34      33      42      39      41      43      41      42      39
      31      42      37      35      39      50      51      44      41      43
      52      45      53      34      49      43      36      34      37      36
      49      44      49      55      47      59      51      48      40      31
      43      43      48      51      56      41      38      42      42      48
      56      58      55      58      61      53      54      63      57      48
      55      51      51      54      55      52      42      49      58      64
      68      62      60      60      56      63      61      55      56      52
      42      51      55      51      45      48      51      54      49      47
      57      56      79      64      49      42      46      56      49      48
      47      39      42      37      51      45      57      48      38      42
      59      39      45      30      44      51      49      49      38      39
      40      43      43      34      42      50      37      43      38      44
      40      39      36      38      41      38      40      45      36      34
      39      35      29      38      42      38      39      41      39      42
      43      36      37      41      35      31      35      35      31      32
      30      40      37      28      33      40      46      37      30      28
      27      34      23      31      34      29      36      34      46      43
      36      33      33      37      34      42      38      38      39      30
      35      41      37      42      36      34      36      31      36      39
      40      35      40      50      45      45      39      39      43      43
      47      49      46      49      50      47      52      54      44      39
      46      50      53      59      57      58      59      56      60      61
      61      61      52      65      81      76      81      75      81      83
      78      79      79      92      95      85      93      94      91      89
      91     105     108      87      99      91      88      95     108      96
     102      99      89      81      88      75      77      71      77      72
      59      56      53      66      57      55      46      53      54      43
      64      56      52      47      39      56      54      37      33      45
      44      42      48      41      44      34      40      52      47      42
      40      42      41      40      42      43      42      37      32      39
      51      50      46      45      44      40      40      36      43      42
      47      52      50      58      50      47      43      51      55      53
      53      64      43      49      39      53      52      51      43      44
      66      41      58      51      42      44      61      46      58      52
      45      52      60      50      63      54      42      47      41      47
      63      57      50      69      68      60      65      63      64      67
      64      57      62      59      52      65      75      69      59      54
      56      65      56      52      59      49      45      51      49      47
      50      49      52      48      38      41      54      56      47      49
      47      42      47      55      49      46      50      42      60      50
      48      47      42      38      47      44      49      41      58      58
      54      54      61      64      57      72      58      65      79      58
      67      67      57      54      64      72      72      77      77      83
      76      85      82      73      97     113      99      96      85      98
     104     115     128     128     117     110     121     124     126     138
     144     147     147     148     145     131     127     126     125     138
     144     138     136     129     114     119     130     124     127     120
     118     104     116     112     104      98     117     108     113     106
     102      86      87      87     111      85      84      62      62      81
      87      67      64      55      77      66      60      58      62      58
      51      59      64      56      52      58      52      49      42      42
      47      50      44      56      56      52      48      62      57      51
      50      47      50      54      56      46      46      44      53      62
      50      45      53      57      54      45      43      52      55      48
      40      49      47      46      49      50      55      45      54      59
      51      51      51      69      57      54      71      56      67      64
      55      68      80      67      70      84      67      55      73      84
      85      81      96      87      91      86      73      85      92     104
     105     111     111     107     117     126     127     144     116      98
     130     132     144     140     147     158     142     145     138     125
     129     133     129     130     136     137     137     129     126     122
     117     118     110     107     106      91      82      89      88      71
      62      83      81      63      61      70      61      53      63      57
      52      53      66      58      69      58      43      57      64      52
      37      51      48      52      52      50      55      54      38      49
      41      45      52      58      51      55      49      39      33      47
      53      53      45      46      38      50      52      42      41      41
      56      58      54      55      53      46      48      49      50      38
      36      45      40      41      39      41      49      52      47      48
      48      43      49      53      45      40      50      50      43      52
      47      45      47      47      43      44      40      43      50      43
      49      51      45      50      42      55      57      57      49      47
      54      55      44      44      34      40      49      55      59      43
      43      60      59      59      44      46      63      53      49      60
      59      61      55      45      56      64      52      43      55      55
      59      55      57      52      56      61      59      55      61      58
      60      60      54      57      56      55      55                        